M.H_b.TA Time [a],M.H_b.TA TA [mol/kg]
0.0,0.002345
1000.0,0.0023448894731433394
2000.0,0.0023455265856711137
3000.0,0.002345945930544492
4000.0,0.00234641153698952
5000.0,0.002346797577387743
6000.0,0.00234704164771452
7000.0,0.002347290562808272
8000.0,0.0023474675720910176
9000.0,0.0023476231892337056
10000.0,0.0023477792906303084
11000.0,0.002348015599035492
12000.0,0.0023482098014621375
13000.0,0.002348304476018948
14000.0,0.002348342395217648
15000.0,0.0023483646719374713
16000.0,0.0023483835601068094
17000.0,0.002348399419060254
18000.0,0.002348413899191129
19000.0,0.002348620418303028
20000.0,0.0023488689307692976
21000.0,0.002348958999041354
22000.0,0.0023489907038580526
23000.0,0.002348985237483918
24000.0,0.0023489622640836057
25000.0,0.002348929862124469
26000.0,0.0023489099012804337
27000.0,0.00234888447606908
28000.0,0.0023488623776642343
29000.0,0.002348833418634042
30000.0,0.0023488170768220353
31000.0,0.002348803959434763
32000.0,0.0023487816406754683
33000.0,0.002348749268258444
34000.0,0.0023487450422775675
35000.0,0.0023487414652636003
36000.0,0.00234872124754974
37000.0,0.0023486918372069105
38000.0,0.002348666452027596
39000.0,0.0023486683319951865
40000.0,0.002348667140825811
41000.0,0.0023486623360801876
42000.0,0.0023486549694173475
43000.0,0.002348634217251429
44000.0,0.0023486164547970884
45000.0,0.002348601156866163
46000.0,0.0023485880251899204
47000.0,0.0023485816557385643
48000.0,0.002348582273959176
49000.0,0.0023485786857053207
50000.0,0.002348570180642979
51000.0,0.0023485800871550235
52000.0,0.0023485824347206064
53000.0,0.002348580966997417
54000.0,0.002348582236284227
55000.0,0.0023485715434444078
56000.0,0.0023485620859640746
57000.0,0.0023485539580665616
58000.0,0.002348546972763344
59000.0,0.002348540969422395
60000.0,0.002348535809997044
61000.0,0.0023485313758493864
62000.0,0.0023485275650209636
63000.0,0.0023485242898874823
64000.0,0.0023485214751433063
65000.0,0.002348519056069477
66000.0,0.0023485169770452534
67000.0,0.0023485151902689874
68000.0,0.0023485136546588436
69000.0,0.0023485123349080966
70000.0,0.002348511663939988
71000.0,0.0023485113102568733
72000.0,0.002348511006310188
73000.0,0.0023485107451203407
74000.0,0.0023485105206727578
75000.0,0.0023485103277987975
76000.0,0.0023485101620569103
77000.0,0.0023485100196303523
78000.0,0.002348509897239294
79000.0,0.0023485097920652883
80000.0,0.002348509701686368
81000.0,0.0023485096240212703
82000.0,0.002348509557281511
83000.0,0.002348509499930194
84000.0,0.0023485094506466232
85000.0,0.0023485094082958914
86000.0,0.0023485093719027377
87000.0,0.0023485093406290956
88000.0,0.00234850931375479
89000.0,0.0023485092906609566
90000.0,0.002348509270815788
91000.0,0.002348509253762284
92000.0,0.002348509239107738
93000.0,0.0023485092265146806
94000.0,0.0023485092156931182
95000.0,0.0023485092063938503
96000.0,0.002348509198402732
97000.0,0.0023485091915357442
98000.0,0.002348509185634751
99000.0,0.0023485091805638637
100000.0,0.002348509176206311
101000.0,0.0023485091724617453
102000.0,0.002348509169243937
103000.0,0.0023485091664787834
104000.0,0.002348509164102611
105000.0,0.0023485091620607007
106000.0,0.00234850916030603
107000.0,0.0023485091587981937
108000.0,0.0023485091575024693
109000.0,0.0023485091563890162
110000.0,0.002348509155432196
111000.0,0.0023485091546099736
112000.0,0.002348509153903416
113000.0,0.002348509153296251
114000.0,0.002348509152774496
115000.0,0.002348509152326138
116000.0,0.002348509151940852
117000.0,0.002348509151609765
118000.0,0.0023485091513252526
119000.0,0.002348509151080764
120000.0,0.002348509150870668
121000.0,0.0023485091506901265
122000.0,0.0023485091505349824
123000.0,0.0023485091504016637
124000.0,0.0023485091502870987
125000.0,0.002348509150188649
126000.0,0.002348509150104049
127000.0,0.002348509150031349
128000.0,0.002348509149968876
129000.0,0.002348509149915192
130000.0,0.0023485091498690585
131000.0,0.0023485091498294157
132000.0,0.0023485091497953505
133000.0,0.002348509149766078
134000.0,0.0023485091497409223
135000.0,0.0023485091497193055
136000.0,0.002348509149700729
137000.0,0.0023485091496847667
138000.0,0.002348509149671049
139000.0,0.0023485091496592606
140000.0,0.0023485091496491316
141000.0,0.0023485091496404267
142000.0,0.0023485091496329466
143000.0,0.0023485091496265186
144000.0,0.002348509149620995
145000.0,0.0023485091496162486
146000.0,0.0023485091496121685
147000.0,0.002348509149608664
148000.0,0.0023485091496056516
149000.0,0.0023485091496030634
150000.0,0.002348509149600839
151000.0,0.0023485091495989282
152000.0,0.0023485091495972863
153000.0,0.0023485091495958742
154000.0,0.0023485091495946612
155000.0,0.00234850914959362
156000.0,0.002348509149592724
157000.0,0.0023485091495919564
158000.0,0.002348509149591295
159000.0,0.0023485091495907265
160000.0,0.0023485091495902394
161000.0,0.0023485091495898188
162000.0,0.002348509149589457
163000.0,0.0023485091495891483
164000.0,0.002348509149588883
165000.0,0.0023485091495886548
166000.0,0.00234850914958846
167000.0,0.0023485091495882918
168000.0,0.0023485091495881456
169000.0,0.002348509149588019
170000.0,0.0023485091495879093
171000.0,0.0023485091495878147
172000.0,0.002348509149587734
173000.0,0.0023485091495876642
174000.0,0.0023485091495876052
175000.0,0.0023485091495875545
176000.0,0.002348509149587511
177000.0,0.0023485091495874734
178000.0,0.002348509149587441
179000.0,0.0023485091495874136
180000.0,0.002348509149587391
181000.0,0.0023485091495873698
182000.0,0.0023485091495873524
183000.0,0.0023485091495873385
184000.0,0.002348509149587325
185000.0,0.0023485091495873134
186000.0,0.0023485091495873043
187000.0,0.002348509149587296
188000.0,0.002348509149587289
189000.0,0.0023485091495872848
190000.0,0.0023485091495872804
191000.0,0.0023485091495872752
192000.0,0.002348509149587271
193000.0,0.0023485091495872665
194000.0,0.0023485091495872626
195000.0,0.002348509149587258
196000.0,0.0023485091495872535
197000.0,0.0023485091495872496
198000.0,0.002348509149587245
199000.0,0.002348509149587241
200000.0,0.002348509149587236
201000.0,0.002348509149587232
202000.0,0.002348509149587228
203000.0,0.0023485091495872236
204000.0,0.002348509149587219
205000.0,0.0023485091495872145
206000.0,0.0023485091495872106
207000.0,0.002348509149587206
208000.0,0.002348509149587203
209000.0,0.0023485091495872024
210000.0,0.0023485091495872024
211000.0,0.002348509149587202
212000.0,0.002348509149587202
213000.0,0.002348509149587202
214000.0,0.002348509149587202
215000.0,0.002348509149587202
216000.0,0.0023485091495872024
217000.0,0.002348509149587202
218000.0,0.002348509149587202
219000.0,0.002348509149587202
220000.0,0.002348509149587202
221000.0,0.0023485091495872024
222000.0,0.002348509149587202
223000.0,0.0023485091495872024
224000.0,0.002348509149587202
225000.0,0.002348509149587202
226000.0,0.0023485091495872024
227000.0,0.002348509149587202
228000.0,0.002348509149587202
229000.0,0.002348509149587202
230000.0,0.0023485091495872024
231000.0,0.002348509149587202
232000.0,0.002348509149587202
233000.0,0.002348509149587202
234000.0,0.002348509149587202
235000.0,0.002348509149587202
236000.0,0.002348509149587202
237000.0,0.0023485091495872024
238000.0,0.002348509149587202
239000.0,0.002348509149587202
240000.0,0.0023485091495872024
241000.0,0.002348509149587202
242000.0,0.002348509149587202
243000.0,0.002348509149587202
244000.0,0.0023485091495872024
245000.0,0.002348509149587202
246000.0,0.002348509149587202
247000.0,0.002348509149587202
248000.0,0.002348509149587202
249000.0,0.002348509149587202
250000.0,0.002348509149587202
251000.0,0.0023485091495872024
252000.0,0.002348509149587202
253000.0,0.002348509149587202
254000.0,0.002348509149587202
255000.0,0.002348509149587202
256000.0,0.0023485091495872024
257000.0,0.002348509149587202
258000.0,0.0023485091495872024
259000.0,0.002348509149587202
260000.0,0.002348509149587202
261000.0,0.002348509149587202
262000.0,0.002348509149587202
263000.0,0.002348509149587202
264000.0,0.002348509149587202
265000.0,0.0023485091495872024
266000.0,0.002348509149587202
267000.0,0.002348509149587202
268000.0,0.002348509149587202
269000.0,0.002348509149587202
270000.0,0.0023485091495872024
271000.0,0.002348509149587202
272000.0,0.0023485091495872024
273000.0,0.002348509149587202
274000.0,0.002348509149587202
275000.0,0.002348509149587202
276000.0,0.002348509149587202
277000.0,0.002348509149587202
278000.0,0.002348509149587202
279000.0,0.0023485091495872024
280000.0,0.002348509149587202
281000.0,0.002348509149587202
282000.0,0.002348509149587202
283000.0,0.002348509149587202
284000.0,0.0023485091495872024
285000.0,0.002348509149587202
286000.0,0.0023485091495872024
287000.0,0.002348509149587202
288000.0,0.002348509149587202
289000.0,0.0023485091495872024
290000.0,0.002348509149587202
291000.0,0.002348509149587202
292000.0,0.002348509149587202
293000.0,0.0023485091495872024
294000.0,0.002348509149587202
295000.0,0.002348509149587202
296000.0,0.002348509149587202
297000.0,0.002348509149587202
298000.0,0.002348509149587202
299000.0,0.002348509149587202
300000.0,0.0023485091495872024
301000.0,0.002348509149587202
302000.0,0.002348509149587202
303000.0,0.002348509149587202
304000.0,0.002348509149587202
305000.0,0.0023485091495872024
306000.0,0.002348509149587202
307000.0,0.0023485091495872024
308000.0,0.002348509149587202
309000.0,0.002348509149587202
310000.0,0.0023485091495872024
311000.0,0.002348509149587202
312000.0,0.002348509149587202
313000.0,0.002348509149587202
314000.0,0.0023485091495872024
315000.0,0.002348509149587202
316000.0,0.002348509149587202
317000.0,0.002348509149587202
318000.0,0.002348509149587202
319000.0,0.002348509149587202
320000.0,0.002348509149587202
321000.0,0.0023485091495872024
322000.0,0.002348509149587202
323000.0,0.002348509149587202
324000.0,0.0023485091495872024
325000.0,0.002348509149587202
326000.0,0.002348509149587202
327000.0,0.002348509149587202
328000.0,0.0023485091495872024
329000.0,0.002348509149587202
330000.0,0.002348509149587202
331000.0,0.002348509149587202
332000.0,0.002348509149587202
333000.0,0.002348509149587202
334000.0,0.002348509149587202
335000.0,0.0023485091495872024
336000.0,0.002348509149587202
337000.0,0.002348509149587202
338000.0,0.002348509149587202
339000.0,0.002348509149587202
340000.0,0.0023485091495872024
341000.0,0.002348509149587202
342000.0,0.0023485091495872024
343000.0,0.002348509149587202
344000.0,0.002348509149587202
345000.0,0.0023485091495872024
346000.0,0.002348509149587202
347000.0,0.002348509149587202
348000.0,0.002348509149587202
349000.0,0.0023485091495872024
350000.0,0.002348509149587202
351000.0,0.002348509149587202
352000.0,0.002348509149587202
353000.0,0.002348509149587202
354000.0,0.002348509149587202
355000.0,0.002348509149587202
356000.0,0.0023485091495872024
357000.0,0.002348509149587202
358000.0,0.002348509149587202
359000.0,0.0023485091495872024
360000.0,0.002348509149587202
361000.0,0.002348509149587202
362000.0,0.002348509149587202
363000.0,0.0023485091495872024
364000.0,0.002348509149587202
365000.0,0.002348509149587202
366000.0,0.002348509149587202
367000.0,0.002348509149587202
368000.0,0.002348509149587202
369000.0,0.002348509149587202
370000.0,0.0023485091495872024
371000.0,0.002348509149587202
372000.0,0.002348509149587202
373000.0,0.002348509149587202
374000.0,0.002348509149587202
375000.0,0.0023485091495872024
376000.0,0.002348509149587202
377000.0,0.0023485091495872024
378000.0,0.002348509149587202
379000.0,0.002348509149587202
380000.0,0.0023485091495872024
381000.0,0.002348509149587202
382000.0,0.002348509149587202
383000.0,0.002348509149587202
384000.0,0.0023485091495872024
385000.0,0.002348509149587202
386000.0,0.002348509149587202
387000.0,0.002348509149587202
388000.0,0.002348509149587202
389000.0,0.002348509149587202
390000.0,0.002348509149587202
391000.0,0.0023485091495872024
392000.0,0.002348509149587202
393000.0,0.002348509149587202
394000.0,0.0023485091495872024
395000.0,0.002348509149587202
396000.0,0.002348509149587202
397000.0,0.002348509149587202
398000.0,0.0023485091495872024
399000.0,0.002348509149587202
400000.0,0.002348509149587202
401000.0,0.002348509149587202
402000.0,0.002348509149587202
403000.0,0.002348509149587202
404000.0,0.002348509149587202
405000.0,0.0023485091495872024
406000.0,0.002348509149587202
407000.0,0.002348509149587202
408000.0,0.002348509149587202
409000.0,0.002348509149587202
410000.0,0.0023485091495872024
411000.0,0.002348509149587202
412000.0,0.0023485091495872024
413000.0,0.002348509149587202
414000.0,0.002348509149587202
415000.0,0.002348509149587202
416000.0,0.002348509149587202
417000.0,0.002348509149587202
418000.0,0.002348509149587202
419000.0,0.0023485091495872024
420000.0,0.002348509149587202
421000.0,0.002348509149587202
422000.0,0.002348509149587202
423000.0,0.002348509149587202
424000.0,0.002348509149587202
425000.0,0.002348509149587202
426000.0,0.0023485091495872024
427000.0,0.002348509149587202
428000.0,0.002348509149587202
429000.0,0.0023485091495872024
430000.0,0.002348509149587202
431000.0,0.0023485091495872024
432000.0,0.002348509149587202
433000.0,0.0023485091495872024
434000.0,0.002348509149587202
435000.0,0.002348509149587202
436000.0,0.002348509149587202
437000.0,0.002348509149587202
438000.0,0.002348509149587202
439000.0,0.002348509149587202
440000.0,0.0023485091495872024
441000.0,0.002348509149587202
442000.0,0.002348509149587202
443000.0,0.002348509149587202
444000.0,0.002348509149587202
445000.0,0.002348509149587202
446000.0,0.002348509149587202
447000.0,0.0023485091495872024
448000.0,0.002348509149587202
449000.0,0.002348509149587202
450000.0,0.002348509149587202
451000.0,0.002348509149587202
452000.0,0.0023485091495872024
453000.0,0.002348509149587202
454000.0,0.0023485091495872024
455000.0,0.002348509149587202
456000.0,0.002348509149587202
457000.0,0.002348509149587202
458000.0,0.002348509149587202
459000.0,0.002348509149587202
460000.0,0.002348509149587202
461000.0,0.0023485091495872024
462000.0,0.002348509149587202
463000.0,0.002348509149587202
464000.0,0.002348509149587202
465000.0,0.002348509149587202
466000.0,0.002348509149587202
467000.0,0.002348509149587202
468000.0,0.0023485091495872024
469000.0,0.002348509149587202
470000.0,0.002348509149587202
471000.0,0.002348509149587202
472000.0,0.002348509149587202
473000.0,0.0023485091495872024
474000.0,0.002348509149587202
475000.0,0.0023485091495872024
476000.0,0.002348509149587202
477000.0,0.002348509149587202
478000.0,0.002348509149587202
479000.0,0.002348509149587202
480000.0,0.002348509149587202
481000.0,0.002348509149587202
482000.0,0.0023485091495872024
483000.0,0.002348509149587202
484000.0,0.002348509149587202
485000.0,0.002348509149587202
486000.0,0.002348509149587202
487000.0,0.0023485091495872024
488000.0,0.002348509149587202
489000.0,0.0023485091495872024
490000.0,0.002348509149587202
491000.0,0.002348509149587202
492000.0,0.0023485091495872024
493000.0,0.002348509149587202
494000.0,0.002348509149587202
495000.0,0.002348509149587202
496000.0,0.0023485091495872024
497000.0,0.002348509149587202
498000.0,0.002348509149587202
499000.0,0.002348509149587202
500000.0,0.002348509149587202
501000.0,0.002348509149587202
502000.0,0.002348509149587202
503000.0,0.0023485091495872024
504000.0,0.002348509149587202
505000.0,0.002348509149587202
506000.0,0.002348509149587202
507000.0,0.002348509149587202
508000.0,0.0023485091495872024
509000.0,0.002348509149587202
510000.0,0.0023485091495872024
511000.0,0.002348509149587202
512000.0,0.002348509149587202
513000.0,0.0023485091495872024
514000.0,0.002348509149587202
515000.0,0.002348509149587202
516000.0,0.002348509149587202
517000.0,0.0023485091495872024
518000.0,0.002348509149587202
519000.0,0.002348509149587202
520000.0,0.002348509149587202
521000.0,0.002348509149587202
522000.0,0.002348509149587202
523000.0,0.002348509149587202
524000.0,0.0023485091495872024
525000.0,0.002348509149587202
526000.0,0.002348509149587202
527000.0,0.0023485091495872024
528000.0,0.002348509149587202
529000.0,0.002348509149587202
530000.0,0.002348509149587202
531000.0,0.0023485091495872024
532000.0,0.002348509149587202
533000.0,0.002348509149587202
534000.0,0.002348509149587202
535000.0,0.002348509149587202
536000.0,0.002348509149587202
537000.0,0.002348509149587202
538000.0,0.0023485091495872024
539000.0,0.002348509149587202
540000.0,0.002348509149587202
541000.0,0.002348509149587202
542000.0,0.002348509149587202
543000.0,0.0023485091495872024
544000.0,0.002348509149587202
545000.0,0.0023485091495872024
546000.0,0.002348509149587202
547000.0,0.002348509149587202
548000.0,0.002348509149587202
549000.0,0.002348509149587202
550000.0,0.002348509149587202
551000.0,0.002348509149587202
552000.0,0.0023485091495872024
553000.0,0.002348509149587202
554000.0,0.002348509149587202
555000.0,0.002348509149587202
556000.0,0.002348509149587202
557000.0,0.002348509149587202
558000.0,0.002348509149587202
559000.0,0.0023485091495872024
560000.0,0.002348509149587202
561000.0,0.002348509149587202
562000.0,0.0023485091495872024
563000.0,0.002348509149587202
564000.0,0.002348509149587202
565000.0,0.002348509149587202
566000.0,0.0023485091495872024
567000.0,0.002348509149587202
568000.0,0.002348509149587202
569000.0,0.002348509149587202
570000.0,0.002348509149587202
571000.0,0.002348509149587202
572000.0,0.002348509149587202
573000.0,0.0023485091495872024
574000.0,0.002348509149587202
575000.0,0.002348509149587202
576000.0,0.0023485091495872024
577000.0,0.002348509149587202
578000.0,0.002348509149587202
579000.0,0.002348509149587202
580000.0,0.0023485091495872024
581000.0,0.002348509149587202
582000.0,0.002348509149587202
583000.0,0.002348509149587202
584000.0,0.002348509149587202
585000.0,0.002348509149587202
586000.0,0.002348509149587202
587000.0,0.0023485091495872024
588000.0,0.002348509149587202
589000.0,0.002348509149587202
590000.0,0.002348509149587202
591000.0,0.002348509149587202
592000.0,0.0023485091495872024
593000.0,0.002348509149587202
594000.0,0.0023485091495872024
595000.0,0.002348509149587202
596000.0,0.002348509149587202
597000.0,0.0023485091495872024
598000.0,0.002348509149587202
599000.0,0.002348509149587202
600000.0,0.002348509149587202
601000.0,0.0023485091495872024
602000.0,0.002348509149587202
603000.0,0.002348509149587202
604000.0,0.002348509149587202
605000.0,0.002348509149587202
606000.0,0.002348509149587202
607000.0,0.002348509149587202
608000.0,0.0023485091495872024
609000.0,0.002348509149587202
610000.0,0.002348509149587202
611000.0,0.002348509149587202
612000.0,0.002348509149587202
613000.0,0.0023485091495872024
614000.0,0.002348509149587202
615000.0,0.0023485091495872024
616000.0,0.002348509149587202
617000.0,0.002348509149587202
618000.0,0.002348509149587202
619000.0,0.002348509149587202
620000.0,0.002348509149587202
621000.0,0.002348509149587202
622000.0,0.0023485091495872024
623000.0,0.002348509149587202
624000.0,0.002348509149587202
625000.0,0.002348509149587202
626000.0,0.002348509149587202
627000.0,0.0023485091495872024
628000.0,0.002348509149587202
629000.0,0.0023485091495872024
630000.0,0.002348509149587202
631000.0,0.002348509149587202
632000.0,0.0023485091495872024
633000.0,0.002348509149587202
634000.0,0.002348509149587202
635000.0,0.002348509149587202
636000.0,0.0023485091495872024
637000.0,0.002348509149587202
638000.0,0.002348509149587202
639000.0,0.002348509149587202
640000.0,0.002348509149587202
641000.0,0.002348509149587202
642000.0,0.002348509149587202
643000.0,0.0023485091495872024
644000.0,0.002348509149587202
645000.0,0.002348509149587202
646000.0,0.002348509149587202
647000.0,0.002348509149587202
648000.0,0.0023485091495872024
649000.0,0.002348509149587202
650000.0,0.0023485091495872024
651000.0,0.002348509149587202
652000.0,0.002348509149587202
653000.0,0.002348509149587202
654000.0,0.002348509149587202
655000.0,0.002348509149587202
656000.0,0.002348509149587202
657000.0,0.0023485091495872024
658000.0,0.002348509149587202
659000.0,0.002348509149587202
660000.0,0.002348509149587202
661000.0,0.002348509149587202
